Data from Absorbance__0__16-12-06-829.txt Node

Date: Thu Jul 03 16:12:06 PDT 2025
User: root
Spectrometer: HDX01687
Trigger mode: 0
Integration Time (sec): 6.000000E-3
Scans to average: 5
Nonlinearity correction enabled: true
Boxcar width: 10
Storing dark spectrum: false
XAxis mode: Wavelengths
Number of Pixels in Spectrum: 2068
>>>>>Begin Spectral Data<<<<<
191.847	-0.00157
192.409	0.0014
192.97	0.00325
193.532	0.00467
194.093	0.0059
194.654	0.00806
195.215	0.00912
195.776	0.01035
196.337	0.01121
196.897	0.01234
197.458	0.01316
198.018	0.01538
198.578	0.0171
199.138	0.0187
199.698	0.02082
200.258	0.02265
200.818	0.02501
201.378	0.02605
201.937	0.02831
202.496	0.02994
203.056	0.03202
203.615	0.03389
204.174	0.03538
204.733	0.03785
205.291	0.04089
205.85	0.04343
206.408	0.04636
206.967	0.04922
207.525	0.05224
208.083	0.0565
208.641	0.06144
209.199	0.0677
209.756	0.07426
210.314	0.08354
210.871	0.09509
211.429	0.10862
211.986	0.12527
212.543	0.14487
213.1	0.16768
213.657	0.19386
214.213	0.22351
214.77	0.25513
215.326	0.2889
215.882	0.32551
216.439	0.36236
216.995	0.40046
217.551	0.43941
218.106	0.47863
218.662	0.51846
219.217	0.55842
219.773	0.59712
220.328	0.63476
220.883	0.67201
221.438	0.7088
221.993	0.74399
222.548	0.77736
223.103	0.81007
223.657	0.84064
224.211	0.86998
224.766	0.89823
225.32	0.92503
225.874	0.95021
226.428	0.97542
226.981	0.99911
227.535	1.02122
228.088	1.04178
228.642	1.06072
229.195	1.07879
229.748	1.09451
230.301	1.10851
230.854	1.11947
231.407	1.12874
231.959	1.13527
232.512	1.13861
233.064	1.13818
233.616	1.13508
234.168	1.12944
234.72	1.12128
235.272	1.11065
235.824	1.09811
236.376	1.08322
236.927	1.06682
237.478	1.04889
238.03	1.02867
238.581	1.00818
239.132	0.98647
239.682	0.96459
240.233	0.94214
240.784	0.9196
241.334	0.89709
241.884	0.87485
242.435	0.85259
242.985	0.83084
243.535	0.80979
244.084	0.78977
244.634	0.77075
245.184	0.75256
245.733	0.73522
246.282	0.7187
246.832	0.70273
247.381	0.68706
247.93	0.67189
248.478	0.65687
249.027	0.64247
249.576	0.6285
250.124	0.6144
250.672	0.60072
251.221	0.58715
251.769	0.57369
252.317	0.56047
252.864	0.54731
253.412	0.5341
253.96	0.52186
254.507	0.50944
255.054	0.49726
255.602	0.48533
256.149	0.47377
256.696	0.46256
257.242	0.45156
257.789	0.44116
258.336	0.43131
258.882	0.42167
259.428	0.41288
259.974	0.40442
260.52	0.39613
261.066	0.38834
261.612	0.381
262.158	0.37417
262.703	0.3677
263.249	0.36175
263.794	0.35624
264.339	0.35118
264.884	0.34653
265.429	0.34182
265.974	0.33797
266.519	0.33422
267.063	0.33065
267.608	0.327
268.152	0.32358
268.696	0.32047
269.24	0.31734
269.784	0.31421
270.328	0.31124
270.872	0.30775
271.415	0.30445
271.959	0.301
272.502	0.29754
273.045	0.29414
273.588	0.29041
274.131	0.28677
274.674	0.28288
275.216	0.27906
275.759	0.27486
276.301	0.27105
276.844	0.26703
277.386	0.26281
277.928	0.25837
278.47	0.25421
279.012	0.24975
279.553	0.24526
280.095	0.2405
280.636	0.23546
281.178	0.23022
281.719	0.22506
282.26	0.21969
282.801	0.21422
283.342	0.20888
283.882	0.20329
284.423	0.1976
284.963	0.19199
285.503	0.18632
286.044	0.18082
286.584	0.17538
287.124	0.17013
287.663	0.16461
288.203	0.15952
288.743	0.15446
289.282	0.14968
289.821	0.14462
290.361	0.14012
290.9	0.13568
291.439	0.13155
291.977	0.12776
292.516	0.12409
293.055	0.1207
293.593	0.11765
294.131	0.11456
294.67	0.11164
295.208	0.10885
295.746	0.10648
296.284	0.10403
296.821	0.10187
297.359	0.09958
297.896	0.09736
298.434	0.0953
298.971	0.09352
299.508	0.09164
300.045	0.08971
300.582	0.08794
301.118	0.08625
301.655	0.08461
302.191	0.08301
302.728	0.08147
303.264	0.07991
303.8	0.07858
304.336	0.077
304.872	0.07559
305.408	0.07416
305.943	0.07296
306.479	0.07158
307.014	0.07018
307.549	0.06886
308.084	0.06744
308.619	0.06614
309.154	0.06496
309.689	0.06387
310.224	0.06265
310.758	0.06152
311.293	0.06059
311.827	0.05961
312.361	0.05879
312.895	0.0579
313.429	0.05711
313.963	0.05629
314.496	0.05549
315.03	0.05474
315.563	0.05418
316.096	0.05343
316.63	0.05293
317.163	0.05229
317.695	0.0518
318.228	0.05114
318.761	0.05067
319.293	0.05004
319.826	0.04965
320.358	0.049
320.89	0.04841
321.422	0.04786
321.954	0.04713
322.486	0.04658
323.018	0.04597
323.549	0.04526
324.081	0.04475
324.612	0.04423
325.143	0.04377
325.674	0.04326
326.205	0.04275
326.736	0.0422
327.267	0.04165
327.797	0.04108
328.328	0.04045
328.858	0.03985
329.388	0.03926
329.918	0.03878
330.448	0.03846
330.978	0.03791
331.508	0.03754
332.038	0.03698
332.567	0.03662
333.096	0.03612
333.626	0.03549
334.155	0.03486
334.684	0.03448
335.213	0.03376
335.741	0.0331
336.27	0.03232
336.798	0.03175
337.327	0.03108
337.855	0.03041
338.383	0.02991
338.911	0.02947
339.439	0.02886
339.967	0.02846
340.495	0.02816
341.022	0.02774
341.549	0.02704
342.077	0.02665
342.604	0.02617
343.131	0.02581
343.658	0.02521
344.185	0.02489
344.711	0.02457
345.238	0.02402
345.764	0.02347
346.291	0.02291
346.817	0.02254
347.343	0.02223
347.869	0.0217
348.395	0.0214
348.92	0.02094
349.446	0.02047
349.971	0.0199
350.497	0.01953
351.022	0.01905
351.547	0.01842
352.072	0.01781
352.597	0.01751
353.122	0.0171
353.646	0.01662
354.171	0.01626
354.695	0.01589
355.219	0.01567
355.744	0.01533
356.268	0.01522
356.792	0.01504
357.315	0.01512
357.839	0.015
358.362	0.01476
358.886	0.01462
359.409	0.01446
359.932	0.01454
360.455	0.01443
360.978	0.01431
361.501	0.01423
362.024	0.01425
362.546	0.01442
363.069	0.01461
363.591	0.0147
364.113	0.01474
364.635	0.01491
365.157	0.01485
365.679	0.01492
366.201	0.01494
366.723	0.01501
367.244	0.0152
367.765	0.01516
368.287	0.01513
368.808	0.01503
369.329	0.01517
369.85	0.01509
370.37	0.01507
370.891	0.01508
371.412	0.01513
371.932	0.01525
372.452	0.01526
372.972	0.01503
373.492	0.01497
374.012	0.01484
374.532	0.01484
375.052	0.01477
375.571	0.01468
376.091	0.01484
376.61	0.01477
377.129	0.01464
377.649	0.01442
378.167	0.01418
378.686	0.01413
379.205	0.01391
379.724	0.01386
380.242	0.01372
380.761	0.01372
381.279	0.01363
381.797	0.01338
382.315	0.01325
382.833	0.01298
383.351	0.01291
383.868	0.01308
384.386	0.01282
384.903	0.0128
385.42	0.01267
385.938	0.01262
386.455	0.01254
386.972	0.01228
387.488	0.01219
388.005	0.0121
388.522	0.01207
389.038	0.01198
389.554	0.01176
390.071	0.01136
390.587	0.01089
391.103	0.01074
391.619	0.01087
392.134	0.01108
392.65	0.01116
393.165	0.01119
393.681	0.0112
394.196	0.01103
394.711	0.01087
395.226	0.011
395.741	0.01087
396.256	0.01089
396.771	0.01076
397.285	0.01061
397.8	0.01056
398.314	0.01043
398.828	0.01045
399.342	0.01037
399.856	0.01043
400.37	0.01061
400.884	0.01085
401.397	0.01111
401.911	0.01117
402.424	0.0111
402.937	0.0108
403.451	0.01064
403.964	0.0107
404.476	0.01069
404.989	0.01083
405.502	0.0109
406.014	0.01079
406.527	0.01081
407.039	0.01066
407.551	0.01077
408.063	0.0107
408.575	0.01063
409.087	0.01059
409.599	0.01054
410.11	0.01052
410.622	0.0104
411.133	0.01018
411.644	0.01023
412.156	0.01024
412.667	0.01004
413.177	0.00984
413.688	0.00969
414.199	0.00974
414.709	0.00939
415.22	0.00928
415.73	0.009
416.24	0.00877
416.75	0.00884
417.26	0.00863
417.77	0.00868
418.28	0.00851
418.789	0.00861
419.299	0.00855
419.808	0.00851
420.317	0.00841
420.827	0.00848
421.336	0.00849
421.844	0.00862
422.353	0.00844
422.862	0.00814
423.37	0.00819
423.879	0.00802
424.387	0.00797
424.895	0.00781
425.403	0.00795
425.911	0.00817
426.419	0.00841
426.927	0.00862
427.434	0.00859
427.942	0.00877
428.449	0.00855
428.956	0.00841
429.463	0.0085
429.97	0.0087
430.477	0.00894
430.984	0.00882
431.491	0.00874
431.997	0.00863
432.504	0.00847
433.01	0.00858
433.516	0.0089
434.022	0.00885
434.528	0.00906
435.034	0.0093
435.54	0.00931
436.045	0.00905
436.551	0.00898
437.056	0.00881
437.561	0.00844
438.067	0.00825
438.572	0.00776
439.076	0.00774
439.581	0.00764
440.086	0.0075
440.59	0.00729
441.095	0.00729
441.599	0.00748
442.103	0.00747
442.607	0.00763
443.111	0.00766
443.615	0.00753
444.119	0.00719
444.623	0.00717
445.126	0.00731
445.63	0.00731
446.133	0.00737
446.636	0.00733
447.139	0.00687
447.642	0.00701
448.145	0.00674
448.647	0.00635
449.15	0.00667
449.652	0.00655
450.155	0.00633
450.657	0.00615
451.159	0.00604
451.661	0.00579
452.163	0.0055
452.665	0.00522
453.166	0.00498
453.668	0.00502
454.169	0.00542
454.67	0.00564
455.172	0.00571
455.673	0.00558
456.174	0.00545
456.674	0.00561
457.175	0.00576
457.676	0.00612
458.176	0.0056
458.677	0.00584
459.177	0.00572
459.677	0.00549
460.177	0.00563
460.677	0.00573
461.177	0.00565
461.676	0.00553
462.176	0.00538
462.675	0.00531
463.175	0.00555
463.674	0.00537
464.173	0.0051
464.672	0.00474
465.171	0.00452
465.67	0.00449
466.168	0.00424
466.667	0.00389
467.165	0.00335
467.663	0.00316
468.162	0.00278
468.66	0.00299
469.158	0.00299
469.655	0.0035
470.153	0.00319
470.651	0.00283
471.148	0.00313
471.646	0.0031
472.143	0.00305
472.64	0.00324
473.137	0.00346
473.634	0.00339
474.131	0.00367
474.627	0.00365
475.124	0.00352
475.62	0.00349
476.117	0.00345
476.613	0.00359
477.109	0.0037
477.605	0.00358
478.101	0.00365
478.597	0.00367
479.092	0.00349
479.588	0.00331
480.083	0.00321
480.578	0.00337
481.074	0.00346
481.569	0.00312
482.064	0.00293
482.558	0.0032
483.053	0.0032
483.548	0.00287
484.042	0.00273
484.537	0.00245
485.031	0.0026
485.525	0.00243
486.019	0.00261
486.513	0.00245
487.007	0.0024
487.501	0.00255
487.994	0.00292
488.488	0.00287
488.981	0.0031
489.474	0.00325
489.967	0.00341
490.46	0.00316
490.953	0.00316
491.446	0.00307
491.939	0.00333
492.431	0.0034
492.924	0.00317
493.416	0.00304
493.908	0.00335
494.4	0.00322
494.892	0.00349
495.384	0.00313
495.876	0.00338
496.368	0.00309
496.859	0.00326
497.351	0.00314
497.842	0.00319
498.333	0.00274
498.824	0.00302
499.315	0.00322
499.806	0.00336
500.297	0.00363
500.787	0.00382
501.278	0.00374
501.768	0.00398
502.258	0.00366
502.749	0.00382
503.239	0.00401
503.729	0.00386
504.218	0.00355
504.708	0.00368
505.198	0.00367
505.687	0.00398
506.177	0.00375
506.666	0.00387
507.155	0.0038
507.644	0.00394
508.133	0.00394
508.622	0.00418
509.11	0.00383
509.599	0.00347
510.087	0.00341
510.576	0.00317
511.064	0.00305
511.552	0.00317
512.04	0.00303
512.528	0.00298
513.016	0.00309
513.504	0.00302
513.991	0.00321
514.479	0.00334
514.966	0.0034
515.453	0.0033
515.94	0.00332
516.427	0.00375
516.914	0.0037
517.401	0.00352
517.888	0.00369
518.374	0.00335
518.861	0.0035
519.347	0.00356
519.833	0.00339
520.319	0.00308
520.805	0.00306
521.291	0.00324
521.777	0.00314
522.262	0.00309
522.748	0.00344
523.233	0.00372
523.719	0.00384
524.204	0.0037
524.689	0.00379
525.174	0.00388
525.659	0.00386
526.144	0.00388
526.628	0.00374
527.113	0.00397
527.597	0.0042
528.081	0.00411
528.566	0.00436
529.05	0.00457
529.534	0.00457
530.018	0.00456
530.501	0.00471
530.985	0.00465
531.468	0.00453
531.952	0.00488
532.435	0.00493
532.918	0.00467
533.401	0.00436
533.884	0.00411
534.367	0.0042
534.85	0.00417
535.333	0.00406
535.815	0.0042
536.297	0.00406
536.78	0.00372
537.262	0.00352
537.744	0.00349
538.226	0.0035
538.708	0.00323
539.19	0.00297
539.671	0.00294
540.153	0.00301
540.634	0.00309
541.115	0.00312
541.596	0.00314
542.078	0.00296
542.559	0.00277
543.039	0.00295
543.52	0.00316
544.001	0.00329
544.481	0.00325
544.962	0.00317
545.442	0.00325
545.922	0.00312
546.402	0.00331
546.882	0.00342
547.362	0.00329
547.842	0.00326
548.321	0.00333
548.801	0.00359
549.28	0.0038
549.759	0.00377
550.239	0.0039
550.718	0.00396
551.197	0.00411
551.675	0.00419
552.154	0.0042
552.633	0.00426
553.111	0.00408
553.59	0.00379
554.068	0.00361
554.546	0.00362
555.024	0.00358
555.502	0.00351
555.98	0.00345
556.458	0.00326
556.935	0.00327
557.413	0.00359
557.89	0.00362
558.367	0.0033
558.845	0.00307
559.322	0.00287
559.799	0.00301
560.276	0.00297
560.752	0.00286
561.229	0.00302
561.705	0.00304
562.182	0.00316
562.658	0.00318
563.134	0.00358
563.61	0.00349
564.086	0.00349
564.562	0.00356
565.038	0.00376
565.514	0.00373
565.989	0.00375
566.464	0.0039
566.94	0.00392
567.415	0.00399
567.89	0.004
568.365	0.00421
568.84	0.00448
569.315	0.00459
569.789	0.00467
570.264	0.00459
570.738	0.00469
571.213	0.00446
571.687	0.004
572.161	0.00375
572.635	0.0037
573.109	0.00352
573.582	0.00371
574.056	0.00373
574.53	0.00377
575.003	0.00362
575.476	0.00361
575.95	0.00346
576.423	0.00336
576.896	0.00345
577.369	0.00332
577.841	0.00318
578.314	0.00307
578.787	0.00322
579.259	0.00316
579.731	0.00287
580.204	0.003
580.676	0.00287
581.148	0.00284
581.62	0.00325
582.092	0.00345
582.563	0.00337
583.035	0.00341
583.506	0.00341
583.978	0.00356
584.449	0.00342
584.92	0.00339
585.391	0.00339
585.862	0.00341
586.333	0.00349
586.803	0.00354
587.274	0.00344
587.745	0.00348
588.215	0.00362
588.685	0.00327
589.155	0.00316
589.625	0.00337
590.095	0.00338
590.565	0.00357
591.035	0.0034
591.504	0.00328
591.974	0.00308
592.443	0.00315
592.913	0.00292
593.382	0.00288
593.851	0.00278
594.32	0.00288
594.789	0.00296
595.257	0.00298
595.726	0.00312
596.195	0.00302
596.663	0.00282
597.131	0.00281
597.6	0.00301
598.068	0.00281
598.536	0.00303
599.004	0.00315
599.471	0.00308
599.939	0.00298
600.406	0.00279
600.874	0.00283
601.341	0.00288
601.808	0.00301
602.276	0.00318
602.743	0.00331
603.21	0.00342
603.676	0.00344
604.143	0.00348
604.61	0.00352
605.076	0.00342
605.542	0.00334
606.009	0.00338
606.475	0.00347
606.941	0.00356
607.407	0.00344
607.873	0.00352
608.338	0.00356
608.804	0.00364
609.269	0.00364
609.735	0.00343
610.2	0.00351
610.665	0.00362
611.13	0.0035
611.595	0.00349
612.06	0.00346
612.525	0.00345
612.99	0.00342
613.454	0.00333
613.919	0.00322
614.383	0.00303
614.847	0.00319
615.311	0.00331
615.775	0.00341
616.239	0.00351
616.703	0.00346
617.166	0.0035
617.63	0.00357
618.093	0.00345
618.557	0.00347
619.02	0.00357
619.483	0.00379
619.946	0.00374
620.409	0.00378
620.872	0.00394
621.335	0.0039
621.797	0.00382
622.26	0.00375
622.722	0.00369
623.184	0.00391
623.647	0.00408
624.109	0.00405
624.571	0.00397
625.032	0.00396
625.494	0.0038
625.956	0.00388
626.417	0.00381
626.879	0.00376
627.34	0.00374
627.801	0.00364
628.262	0.00335
628.723	0.00332
629.184	0.00317
629.645	0.00322
630.106	0.00328
630.566	0.00317
631.027	0.00328
631.487	0.0032
631.947	0.00327
632.408	0.00321
632.868	0.00306
633.328	0.00294
633.787	0.00313
634.247	0.00309
634.707	0.003
635.166	0.00307
635.626	0.00298
636.085	0.00308
636.544	0.00292
637.003	0.0029
637.462	0.00296
637.921	0.00308
638.38	0.00295
638.838	0.0031
639.297	0.0031
639.755	0.00299
640.214	0.00308
640.672	0.00299
641.13	0.00298
641.588	0.00301
642.046	0.00304
642.504	0.00309
642.961	0.0031
643.419	0.00316
643.877	0.00326
644.334	0.00332
644.791	0.00338
645.248	0.00339
645.705	0.00333
646.162	0.00353
646.619	0.00358
647.076	0.00364
647.533	0.00358
647.989	0.00358
648.446	0.00358
648.902	0.00358
649.358	0.00375
649.814	0.0038
650.27	0.0038
650.726	0.00396
651.182	0.004
651.638	0.00387
652.093	0.00374
652.549	0.00369
653.004	0.00358
653.459	0.00365
653.915	0.00365
654.37	0.00369
654.825	0.00353
655.279	0.00354
655.734	0.00352
656.189	0.00349
656.643	0.00348
657.098	0.00352
657.552	0.00355
658.006	0.00353
658.46	0.00355
658.914	0.00342
659.368	0.00327
659.822	0.00329
660.276	0.00327
660.729	0.00335
661.183	0.00341
661.636	0.00341
662.09	0.00335
662.543	0.00331
662.996	0.00322
663.449	0.0032
663.902	0.00308
664.354	0.00324
664.807	0.00324
665.26	0.00319
665.712	0.00322
666.164	0.00324
666.617	0.00329
667.069	0.0034
667.521	0.0034
667.973	0.00348
668.424	0.00342
668.876	0.00354
669.328	0.00357
669.779	0.00353
670.231	0.0034
670.682	0.00338
671.133	0.0035
671.584	0.0037
672.035	0.00379
672.486	0.00379
672.937	0.00371
673.387	0.00381
673.838	0.00379
674.288	0.00381
674.739	0.00414
675.189	0.00421
675.639	0.00429
676.089	0.00438
676.539	0.00438
676.989	0.00445
677.439	0.00445
677.888	0.0046
678.338	0.00462
678.787	0.00464
679.237	0.00472
679.686	0.00465
680.135	0.00468
680.584	0.00469
681.033	0.0045
681.481	0.00447
681.93	0.00458
682.379	0.00462
682.827	0.00456
683.276	0.00458
683.724	0.0046
684.172	0.00434
684.62	0.00423
685.068	0.00409
685.516	0.00392
685.964	0.00394
686.411	0.00397
686.859	0.00384
687.306	0.00376
687.754	0.00381
688.201	0.00379
688.648	0.00375
689.095	0.00374
689.542	0.00374
689.989	0.00367
690.436	0.0037
690.882	0.00374
691.329	0.00375
691.775	0.00387
692.221	0.0039
692.668	0.00391
693.114	0.00389
693.56	0.00384
694.006	0.00383
694.451	0.00395
694.897	0.00408
695.343	0.00401
695.788	0.00393
696.233	0.00395
696.679	0.00396
697.124	0.00389
697.569	0.00386
698.014	0.00381
698.459	0.00383
698.904	0.00384
699.348	0.0038
699.793	0.00385
700.237	0.00376
700.682	0.00358
701.126	0.00358
701.57	0.00352
702.014	0.00335
702.458	0.00331
702.902	0.00337
703.346	0.00339
703.789	0.00333
704.233	0.00322
704.676	0.00328
705.119	0.0033
705.563	0.00322
706.006	0.00325
706.449	0.00327
706.892	0.00326
707.335	0.0034
707.777	0.00353
708.22	0.00346
708.662	0.00353
709.105	0.00357
709.547	0.00363
709.989	0.00369
710.431	0.00361
710.873	0.00374
711.315	0.00385
711.757	0.00397
712.199	0.00395
712.64	0.00405
713.082	0.00405
713.523	0.00414
713.964	0.0042
714.406	0.00417
714.847	0.00429
715.288	0.00421
715.729	0.00424
716.169	0.00427
716.61	0.00421
717.051	0.00422
717.491	0.0044
717.931	0.0045
718.372	0.00449
718.812	0.00454
719.252	0.00458
719.692	0.0047
720.132	0.00459
720.572	0.00462
721.011	0.00459
721.451	0.00457
721.89	0.00455
722.33	0.00464
722.769	0.00474
723.208	0.00473
723.647	0.00486
724.086	0.00476
724.525	0.00483
724.964	0.00472
725.402	0.00468
725.841	0.0046
726.279	0.00446
726.717	0.00422
727.156	0.00424
727.594	0.00429
728.032	0.00427
728.47	0.00413
728.908	0.00405
729.345	0.00407
729.783	0.00398
730.221	0.00395
730.658	0.00407
731.095	0.00399
731.533	0.00385
731.97	0.00373
732.407	0.00356
732.844	0.00336
733.28	0.00345
733.717	0.00339
734.154	0.00348
734.59	0.00349
735.027	0.0036
735.463	0.00363
735.899	0.00376
736.335	0.00365
736.771	0.00353
737.207	0.00343
737.643	0.00361
738.079	0.00358
738.514	0.00342
738.95	0.0033
739.385	0.0032
739.821	0.0031
740.256	0.00305
740.691	0.00308
741.126	0.00314
741.561	0.00311
741.996	0.00322
742.43	0.00327
742.865	0.00327
743.3	0.00325
743.734	0.00324
744.168	0.00314
744.603	0.00321
745.037	0.00323
745.471	0.00312
745.905	0.00318
746.338	0.00324
746.772	0.00314
747.206	0.00323
747.639	0.00338
748.073	0.0035
748.506	0.00353
748.939	0.00345
749.372	0.00352
749.805	0.00352
750.238	0.00349
750.671	0.00361
751.104	0.00351
751.536	0.00335
751.969	0.0033
752.401	0.00331
752.834	0.00323
753.266	0.00321
753.698	0.00318
754.13	0.00322
754.562	0.00325
754.994	0.00322
755.425	0.00308
755.857	0.00307
756.288	0.00296
756.72	0.00299
757.151	0.0029
757.582	0.00287
758.014	0.00287
758.445	0.00291
758.875	0.00295
759.306	0.00297
759.737	0.00288
760.168	0.00285
760.598	0.00291
761.029	0.00294
761.459	0.00282
761.889	0.0028
762.319	0.00276
762.749	0.00269
763.179	0.00266
763.609	0.00269
764.039	0.00269
764.468	0.00285
764.898	0.00294
765.327	0.00301
765.757	0.00297
766.186	0.00309
766.615	0.00318
767.044	0.00325
767.473	0.0032
767.902	0.00323
768.331	0.00327
768.759	0.0033
769.188	0.00346
769.616	0.00357
770.045	0.00363
770.473	0.00376
770.901	0.004
771.329	0.00414
771.757	0.00424
772.185	0.0042
772.613	0.00426
773.04	0.00425
773.468	0.00424
773.895	0.00422
774.323	0.00416
774.75	0.00429
775.177	0.00431
775.604	0.00441
776.031	0.0044
776.458	0.0044
776.885	0.00435
777.312	0.00421
777.738	0.00423
778.165	0.00418
778.591	0.00413
779.017	0.00415
779.443	0.00414
779.87	0.00403
780.296	0.00393
780.721	0.00379
781.147	0.00381
781.573	0.00372
781.999	0.00371
782.424	0.0038
782.849	0.00387
783.275	0.00391
783.7	0.00381
784.125	0.0038
784.55	0.00362
784.975	0.00359
785.4	0.00357
785.825	0.00352
786.249	0.00357
786.674	0.00358
787.098	0.00353
787.522	0.00358
787.947	0.00354
788.371	0.00352
788.795	0.0035
789.219	0.0036
789.643	0.00372
790.066	0.00379
790.49	0.0039
790.914	0.00393
791.337	0.00393
791.76	0.00392
792.184	0.0039
792.607	0.00389
793.03	0.00393
793.453	0.00407
793.876	0.00418
794.298	0.00431
794.721	0.00443
795.144	0.00453
795.566	0.00458
795.988	0.00464
796.411	0.0046
796.833	0.00465
797.255	0.00474
797.677	0.0047
798.099	0.00466
798.521	0.0046
798.942	0.00468
799.364	0.00469
799.786	0.00483
800.207	0.00479
800.628	0.00481
801.049	0.0049
801.471	0.00491
801.892	0.00489
802.313	0.00494
802.733	0.00494
803.154	0.00486
803.575	0.00487
803.995	0.00484
804.416	0.00488
804.836	0.00491
805.256	0.00497
805.677	0.00499
806.097	0.00492
806.517	0.00502
806.936	0.00503
807.356	0.00508
807.776	0.0049
808.195	0.00486
808.615	0.00468
809.034	0.00461
809.454	0.00449
809.873	0.00441
810.292	0.00445
810.711	0.00445
811.13	0.00434
811.549	0.00436
811.967	0.00438
812.386	0.00441
812.804	0.00439
813.223	0.0043
813.641	0.00433
814.059	0.00424
814.478	0.00418
814.896	0.0041
815.313	0.00398
815.731	0.00391
816.149	0.00387
816.567	0.00393
816.984	0.00403
817.402	0.00421
817.819	0.00428
818.236	0.00436
818.654	0.0043
819.071	0.00425
819.488	0.00427
819.905	0.0043
820.321	0.00422
820.738	0.0042
821.155	0.00406
821.571	0.00407
821.988	0.0041
822.404	0.00404
822.82	0.00405
823.236	0.00409
823.652	0.00422
824.068	0.00429
824.484	0.00428
824.9	0.00439
825.315	0.00443
825.731	0.00446
826.146	0.00452
826.562	0.00449
826.977	0.0045
827.392	0.00461
827.807	0.00472
828.222	0.00472
828.637	0.00478
829.052	0.0048
829.467	0.0049
829.881	0.00501
830.296	0.00496
830.71	0.00491
831.124	0.00493
831.539	0.00499
831.953	0.00498
832.367	0.00493
832.781	0.00493
833.195	0.00493
833.608	0.00475
834.022	0.00466
834.436	0.00459
834.849	0.00445
835.262	0.00448
835.676	0.0045
836.089	0.0045
836.502	0.00447
836.915	0.00445
837.328	0.00434
837.741	0.00431
838.153	0.0043
838.566	0.00425
838.979	0.00429
839.391	0.00435
839.803	0.00434
840.216	0.0044
840.628	0.00447
841.04	0.00446
841.452	0.00454
841.863	0.00465
842.275	0.00478
842.687	0.00486
843.099	0.0048
843.51	0.00475
843.921	0.00468
844.333	0.00462
844.744	0.0046
845.155	0.00459
845.566	0.0047
845.977	0.00476
846.388	0.00475
846.798	0.00471
847.209	0.00468
847.62	0.00464
848.03	0.00458
848.44	0.00457
848.851	0.00448
849.261	0.00437
849.671	0.00435
850.081	0.00423
850.491	0.00416
850.901	0.00418
851.31	0.00413
851.72	0.00425
852.129	0.00431
852.539	0.00426
852.948	0.0043
853.357	0.00433
853.766	0.00429
854.176	0.00425
854.584	0.00433
854.993	0.00431
855.402	0.00433
855.811	0.00433
856.219	0.00439
856.628	0.0044
857.036	0.00442
857.444	0.00443
857.853	0.00442
858.261	0.0045
858.669	0.00449
859.077	0.00455
859.485	0.00449
859.892	0.00454
860.3	0.00448
860.707	0.00453
861.115	0.00462
861.522	0.00466
861.93	0.00463
862.337	0.00464
862.744	0.00455
863.151	0.00448
863.558	0.00455
863.964	0.0046
864.371	0.00474
864.778	0.00478
865.184	0.00483
865.591	0.00483
865.997	0.0048
866.403	0.00485
866.81	0.00475
867.216	0.00482
867.622	0.00473
868.027	0.00475
868.433	0.00472
868.839	0.00461
869.245	0.00448
869.65	0.00436
870.055	0.00432
870.461	0.00424
870.866	0.00423
871.271	0.00433
871.676	0.00436
872.081	0.00437
872.486	0.00426
872.891	0.00418
873.295	0.00418
873.7	0.00421
874.104	0.00418
874.509	0.00428
874.913	0.0044
875.317	0.00449
875.722	0.00456
876.126	0.00464
876.529	0.00464
876.933	0.00456
877.337	0.00462
877.741	0.00454
878.144	0.00456
878.548	0.00451
878.951	0.00454
879.354	0.00451
879.758	0.00445
880.161	0.00436
880.564	0.00429
880.967	0.00422
881.37	0.00399
881.772	0.00373
882.175	0.00346
882.577	0.00326
882.98	0.00298
883.382	0.00266
883.785	0.00241
884.187	0.00213
884.589	0.0019
884.991	0.00171
885.393	0.00158
885.795	0.00141
886.196	0.00132
886.598	0.0012
887	0.00104
887.401	0.00084
887.802	0.00067
888.204	0.00047
888.605	0.00032
889.006	0.00013
889.407	0.00001
889.808	-0
890.209	-0
890.609	-0
891.01	-0
891.411	-0
891.811	-0
892.211	-0
892.612	-0
893.012	-0
893.412	-0
893.812	-0
894.212	-0
894.612	-0
895.011	-0
895.411	-0
895.811	-0
896.21	-0
896.609	-0
897.009	-0
897.408	-0
897.807	-0
898.206	-0
898.605	-0
899.004	-0
899.402	-0
899.801	-0
900.2	-0
900.598	-0
900.996	-0
901.395	-0
901.793	-0
902.191	-0
902.589	-0
902.987	-0
903.385	-0
903.782	-0
904.18	-0
904.578	-0
904.975	-0
905.372	-0
905.77	-0
906.167	-0
906.564	-0
906.961	-0
907.358	-0
907.755	-0
908.152	-0
908.548	-0
908.945	-0
909.341	-0
909.738	-0
910.134	-0
910.53	-0
910.926	-0
911.322	-0
911.718	-0
912.114	-0
912.51	-0
912.905	-0
913.301	-0
913.696	-0
914.092	-0
914.487	-0
914.882	-0
915.277	-0
915.673	-0
916.067	-0
916.462	-0
916.857	-0
917.252	-0
917.646	-0
918.041	-0
918.435	-0
918.83	-0
919.224	-0
919.618	-0
920.012	-0
920.406	-0
920.8	-0
921.194	-0
921.587	-0
921.981	-0
922.374	-0
922.768	-0
923.161	-0
923.554	-0
923.948	-0
924.341	-0
924.734	-0
925.126	-0
925.519	-0
925.912	-0
926.305	-0
926.697	-0
927.09	-0
927.482	-0
927.874	-0
928.266	-0
928.658	-0
929.05	-0
929.442	-0
929.834	-0
930.226	-0
930.618	-0
931.009	-0
931.401	-0
931.792	-0
932.183	-0
932.574	-0
932.966	-0
933.357	-0
933.748	-0
934.138	-0
934.529	-0
934.92	-0
935.31	-0
935.701	-0
936.091	-0
936.482	-0
936.872	-0
937.262	-0
937.652	-0
938.042	-0
938.432	-0
938.822	-0
939.211	-0
939.601	-0
939.991	-0
940.38	-0
940.769	-0
941.159	-0
941.548	-0
941.937	-0
942.326	-0
942.715	-0
943.104	-0
943.492	-0
943.881	-0
944.27	-0
944.658	-0
945.046	-0
945.435	-0
945.823	-0
946.211	-0
946.599	-0
946.987	-0
947.375	-0
947.763	-0
948.15	-0
948.538	-0
948.925	-0
949.313	-0
949.7	-0
950.087	-0
950.475	-0
950.862	-0
951.249	-0
951.636	-0
952.022	-0
952.409	-0
952.796	-0
953.182	-0
953.569	-0
953.955	-0
954.341	-0
954.728	-0
955.114	-0
955.5	-0
955.886	-0
956.271	-0
956.657	-0
957.043	-0
957.428	-0
957.814	-0
958.199	-0
958.585	-0
958.97	-0
959.355	-0
959.74	-0
960.125	-0
960.51	-0
960.895	-0
961.28	-0
961.664	-0
962.049	-0
962.433	-0
962.818	-0
963.202	-0
963.586	-0
963.97	-0
964.354	-0
964.738	-0
965.122	-0
965.506	-0
965.89	-0
966.273	-0
966.657	-0
967.04	-0
967.423	-0
967.807	-0
968.19	-0
968.573	-0
968.956	-0
969.339	-0
969.722	-0
970.104	-0
970.487	-0
970.87	-0
971.252	-0
971.634	-0
972.017	-0
972.399	-0
972.781	-0
973.163	-0
973.545	-0
973.927	-0
974.309	-0
974.69	-0
975.072	-0
975.454	-0
975.835	-0
976.216	-0
976.598	-0
976.979	-0
977.36	-0
977.741	-0
978.122	-0
978.503	-0
978.884	-0
979.264	-0
979.645	-0
980.025	-0
980.406	-0
980.786	-0
981.166	-0
981.547	-0
981.927	-0
982.307	-0
982.687	-0
983.066	-0
983.446	-0
983.826	-0
984.205	-0
984.585	-0
984.964	-0
985.344	-0
985.723	-0
986.102	-0
986.481	-0
986.86	-0
987.239	-0
987.618	-0
987.996	-0
988.375	-0
988.754	-0
989.132	-0
989.51	-0
989.889	-0
990.267	-0
990.645	-0
991.023	-0
991.401	-0
991.779	-0
992.157	-0
992.534	-0
992.912	-0
993.29	-0
993.667	-0
994.044	-0
994.422	-0
994.799	-0
995.176	-0
995.553	-0
995.93	-0
996.307	-0
996.684	-0
997.06	-0
997.437	-0
997.813	-0
998.19	-0
998.566	-0
998.942	-0
999.319	-0
999.695	-0
1000.071	-0
1000.447	-0
1000.823	-0
1001.198	-0
1001.574	-0
1001.95	-0
1002.325	-0
1002.7	-0
1003.076	-0
1003.451	-0
1003.826	-0
1004.201	-0
1004.576	-0
1004.951	-0
1005.326	-0
1005.701	-0
1006.076	-0
1006.45	-0
1006.825	-0
1007.199	-0
1007.573	-0
1007.948	-0
1008.322	-0
1008.696	-0
1009.07	-0
1009.444	-0
1009.818	-0
1010.192	-0
1010.565	-0
1010.939	-0
1011.312	-0
1011.686	-0
1012.059	-0
1012.432	-0
1012.805	-0
1013.179	-0
1013.552	-0
1013.925	-0
1014.297	-0
1014.67	-0
1015.043	-0
1015.415	-0
1015.788	-0
1016.16	-0
1016.533	-0
1016.905	-0
1017.277	-0
1017.649	-0
1018.021	-0
1018.393	-0
1018.765	-0
1019.137	-0
1019.508	-0
1019.88	-0
1020.252	-0
1020.623	-0
1020.994	-0
1021.366	-0
1021.737	-0
1022.108	-0
1022.479	-0
1022.85	-0
1023.221	-0
1023.591	-0
1023.962	-0
1024.333	-0
1024.703	-0
1025.074	-0
1025.444	-0
1025.814	-0
1026.185	-0
1026.555	-0
1026.925	-0
1027.295	-0
1027.665	-0
1028.034	-0
1028.404	-0
1028.774	-0
1029.143	-0
1029.513	-0
1029.882	-0
1030.251	-0
1030.621	-0
1030.99	-0
1031.359	-0
1031.728	-0
1032.097	-0
1032.465	-0
1032.834	-0
1033.203	-0
1033.571	-0
1033.94	-0
1034.308	-0
1034.676	-0
1035.045	-0
1035.413	-0
1035.781	-0
1036.149	-0
1036.517	-0
1036.885	-0
1037.252	-0
1037.62	-0
1037.988	-0
1038.355	-0
1038.723	0.00008
1039.09	0.00036
1039.457	0.00079
1039.824	0.00127
1040.191	0.0017
1040.558	0.00208
1040.925	0.00251
1041.292	0.00292
1041.659	0.00337
1042.026	0.00382
1042.392	0.00429
1042.759	0.00473
1043.125	0.00521
1043.492	0.0056
1043.858	0.00606
1044.224	0.00654
1044.59	0.00701
1044.956	0.00747
1045.322	0.00796
1045.688	0.00845
1046.054	0.00895
1046.419	0.00938
1046.785	0.00958
1047.151	0.00963
1047.516	0.00958
1047.882	0.00955
1048.247	0.00967
1048.612	0.00972
1048.977	0.00978
1049.342	0.00978
1049.707	0.00979
1050.072	0.00976
1050.437	0.0098
1050.802	0.00975
1051.166	0.00973
1051.531	0.00967
1051.895	0.00964
1052.26	0.00962
1052.624	0.00955
1052.988	0.00947
1053.353	0.00948
1053.717	0.00939
1054.081	0.00926
1054.445	0.0092
1054.809	0.00909
1055.172	0.00908
1055.536	0.00907
1055.9	0.00886
1056.263	0.00869
1056.627	0.00854
1056.99	0.00843
1057.353	0.00835
1057.717	0.00822
1058.08	0.00806
1058.443	0.00799
1058.806	0.008
1059.169	0.00799
1059.531	0.00788
1059.894	0.00785
1060.257	0.00789
1060.619	0.00799
1060.982	0.00791
1061.344	0.00794
1061.707	0.0081
1062.069	0.00811
1062.431	0.00815
1062.793	0.00814
1063.155	0.00815
1063.517	0.00826
1063.879	0.0084
1064.241	0.00853
1064.602	0.00862
1064.964	0.00864
1065.326	0.00877
1065.687	0.00886
1066.048	0.00895
1066.41	0.00899
1066.771	0.00903
1067.132	0.00913
1067.493	0.00913
1067.854	0.00909
1068.215	0.00897
1068.576	0.00897
1068.937	0.00892
1069.297	0.00876
1069.658	0.00877
1070.018	0.00877
1070.379	0.00868
1070.739	0.00863
1071.099	0.00866
1071.46	0.00855
1071.82	0.00852
1072.18	0.00845
1072.54	0.00849
1072.9	0.00843
1073.259	0.00838
1073.619	0.00835
1073.979	0.00827
1074.338	0.00817
1074.698	0.00808
1075.057	0.00803
1075.417	0.00813
1075.776	0.00816
1076.135	0.00816
1076.494	0.00828
1076.853	0.00828
1077.212	0.00828
1077.571	0.0082
1077.93	0.00824
1078.288	0.00831
1078.647	0.00824
1079.005	0.00828
1079.364	0.00816
1079.722	0.00824
1080.081	0.00821
1080.439	0.00812
1080.797	0.00819
1081.155	0.00816
1081.513	0.00829
1081.871	0.00837
1082.229	0.0084
1082.587	0.00854
1082.944	0.00848
1083.302	0.00852
1083.659	0.00852
1084.017	0.00852
1084.374	0.00856
1084.731	0.00852
1085.089	0.00865
1085.446	0.00873
1085.803	0.00877
1086.16	0.00893
1086.517	0.00897
1086.873	0.00898
1087.23	0.00893
1087.587	0.00904
1087.943	0.00911
1088.3	0.00915
1088.656	0.00926
1089.013	0.00913
1089.369	0.00918
1089.725	0.00922
1090.081	0.00919
1090.437	0.00937
1090.793	0.00935
1091.149	0.00942
1091.505	0.00936
1091.861	0.0094
1092.216	0.00955
1092.572	0.0096
1092.927	0.00972
1093.283	0.00972
1093.638	0.00961
1093.993	0.00977
1094.349	0.01008
1094.704	0.01008
1095.059	0.00988
1095.414	0.00987
1095.769	0.00988
1096.123	0.0099
1096.478	0.01013
1096.833	0.01021
1097.187	0.01026
1097.542	0.01014
1097.896	0.0101
1098.25	0.01006
1098.605	0.01008
1098.959	0.01015
1099.313	0.01011
1099.667	0.01001
1100.021	0.00982
1100.375	0.0097
1100.729	0.00954
1101.082	0.00956
1101.436	0.00942
1101.79	0.00939
1102.143	0.00944
1102.496	0.0095
1102.85	0.0097
1103.203	0.00956
1103.556	0.00952
1103.909	0.00937
1104.262	0.00921
1104.615	0.00922
1104.968	0.0092
1105.321	0.00897
1105.674	0.00899
1106.026	0.00881
1106.379	0.00871
1106.731	0.00879
1107.084	0.00888
1107.436	0.00896
1107.788	0.00892
1108.14	0.00909
1108.493	0.00908
1108.845	0.0091
1109.197	0.00885
1109.548	0.00865
1109.9	0.00863
1110.252	0.00839
1110.604	0.00831
1110.955	0.00803
1111.307	0.008
1111.658	0.00803
1112.009	0.00785
1112.361	0.00782
1112.712	0.00793
1113.063	0.0078
1113.414	0.00795
1113.765	0.00782
1114.116	0.00776
1114.467	0.00734
1114.817	0.00723
1115.168	0.0072
1115.519	0.00688
1115.869	0.00656
